"λ,n (nm)",n,"λ,k (nm)",k,α (cm⁻¹),Reference,Reference text,Details
250,2.44409,250,0.41638,209295.4158562749,"Zachary C. Holman, Miha Filipič, Antoine Descoeudres, Stefaan De Wolf, Franc Smole, Marko Topič and Christophe Ballif, 'Infrared light management in high-efficiency silicon heterojunction and rear-passivated solar cells', <i>Journal of Applied Physics</i> <b>113</b>, pp.013107, (2013)","Zachary C. Holman, Miha Filipič, Antoine Descoeudres, Stefaan De Wolf, Franc Smole, Marko Topič and Christophe Ballif, 'Infrared light management in high-efficiency silicon heterojunction and rear-passivated solar cells', <i>Journal of Applied Physics</i> <b>113</b>, pp.013107, (2013)","Indium tin oxide, DC sputtered at 8 mTorr, 1.0x10<sup>-20</sup> cm<sup>-3</sup>, mu=28 cm<sup>2</sup>/Vs."
255,2.44098,255,0.39375,194039.54625113428,,,
260,2.43734,260,0.37212,179853.76280828213,,,
265,2.43324,265,0.35145,166658.52650628416,,,
270,2.42873,270,0.3317,154380.19010307177,,,
275,2.42385,275,0.31283,142950.46251963565,,,
280,2.41864,280,0.2948,132305.9306111816,,,
285,2.41314,285,0.27758,122392.0405310112,,,
290,2.40738,290,0.26114,113158.00076668117,,,
295,2.40139,295,0.24543,104547.94372481939,,,
300,2.39521,300,0.23044,96526.4814790976,,,
305,2.38885,305,0.21613,89048.18625840814,,,
310,2.38233,310,0.20248,82078.66845146597,,,
315,2.37569,315,0.18945,75577.74326636016,,,
320,2.36893,320,0.17703,69519.51843312514,,,
325,2.36207,325,0.16519,63871.96190110744,,,
330,2.35513,330,0.15391,58608.790947152134,,,
335,2.34813,335,0.14317,53705.29196590456,,,
340,2.34107,340,0.13294,49134.509102144366,,,
345,2.33396,345,0.12322,44881.976437719924,,,
350,2.32683,350,0.11398,40923.28350356167,,,
355,2.31968,355,0.10521,37242.47471371067,,,
360,2.31251,360,0.09688,33817.49958664213,,,
365,2.30535,365,0.08899,30637.844410186925,,,
370,2.29819,370,0.08152,27686.77114817729,,,
375,2.29104,375,0.07446,24951.785491871575,,,
380,2.28392,380,0.0678,22421.050727725054,,,
385,2.27683,385,0.06151,20076.817051668382,,,
390,2.26978,390,0.0556,17915.133491240256,,,
395,2.26277,395,0.05004,15919.523684621088,,,
400,2.25581,400,0.04484,14086.901458696633,,,
405,2.2489,405,0.03997,12401.92181372682,,,
410,2.24206,410,0.03543,10859.183191871842,,,
415,2.23529,415,0.03121,9450.516310220477,,,
420,2.22859,420,0.02731,8171.132892336881,,,
425,2.22197,425,0.02371,7010.556406269553,,,
430,2.21544,430,0.0204,5961.720012393655,,,
435,2.209,435,0.01738,5020.770604081895,,,
440,2.20266,440,0.01464,4181.174222595871,,,
445,2.19643,445,0.01217,3436.69057026407,,,
450,2.19031,450,0.00997,2784.1492227813546,,,
455,2.1843,455,0.00803,2217.7572754572343,,,
460,2.17843,460,0.00635,1734.7055087213205,,,
465,2.17269,465,0.00491,1326.9006390645923,,,
470,2.1671,470,0.00372,994.6148656471515,,,
475,2.16167,475,0.00276,730.1722714869751,,,
480,2.1564,480,0.00203,531.4527572322734,,,
485,2.15134,485,0.00153,396.4236503086501,,,
490,2.14648,490,0.00124,318.0061135062321,,,
495,2.14189,495,0.00118,299.5619661604813,,,
500,2.13766,500,0.00122,306.61944299036384,,,
505,2.13368,505,0.00126,313.537167803813,,,
510,2.12991,510,0.0013,320.3192509542534,,,
515,2.1263,515,0.00134,326.9696431697338,,,
520,2.12285,520,0.00138,333.4921432272242,,,
525,2.11953,525,0.00142,339.89040518838146,,,
530,2.11633,530,0.00146,346.1679452257432,,,
535,2.11325,535,0.00151,354.677002386586,,,
540,2.11027,540,0.00155,360.70137874549476,,,
545,2.10738,545,0.0016,368.92097216467295,,,
550,2.10458,550,0.00164,374.706323773619,,,
555,2.10187,555,0.00169,382.6516457345406,,,
560,2.09923,560,0.00174,390.45508694616,,,
565,2.09666,565,0.00179,398.12041415403394,,,
570,2.09415,570,0.00184,405.6512619372084,,,
575,2.09171,575,0.00189,413.0511384545885,,,
580,2.08933,580,0.00194,420.32343089408266,,,
585,2.08701,585,0.00199,427.4714106423035,,,
590,2.08473,590,0.00205,436.6281315158696,,,
595,2.08251,595,0.0021,443.5189628597355,,,
600,2.08034,600,0.00216,452.3893421169302,,,
605,2.0782,605,0.00221,459.03601748320284,,,
610,2.07611,610,0.00227,467.6337917146774,,,
615,2.07406,615,0.00233,476.09176473913624,,,
620,2.07205,620,0.00239,484.4133188438455,,,
625,2.07007,625,0.00245,492.60172808287956,,,
630,2.06813,630,0.00251,500.66016257208776,,,
635,2.06622,635,0.00257,508.59169258115077,,,
640,2.06434,640,0.00264,518.3627878423159,,,
645,2.06248,645,0.0027,526.0341187406166,,,
650,2.06066,650,0.00277,535.5207169503832,,,
655,2.05886,655,0.00283,542.9439517349078,,,
660,2.05709,660,0.0029,552.1587088127515,,,
665,2.05534,665,0.00297,561.2348981149885,,,
670,2.05362,670,0.00304,570.175621905252,,,
675,2.05191,675,0.00311,578.9838905282522,,,
680,2.05023,680,0.00318,587.6626257891496,,,
685,2.04857,685,0.00326,598.0491708439548,,,
690,2.04692,690,0.00333,606.4639731277688,,,
695,2.04529,695,0.00341,616.5658099994932,,,
700,2.04368,700,0.00348,624.7281391138561,,,
705,2.04209,705,0.00356,634.557154427215,,,
710,2.04051,710,0.00364,644.2477329051746,,,
715,2.03895,715,0.00372,653.8027788170086,,,
720,2.0374,720,0.0038,663.2251157578452,,,
725,2.03586,725,0.00388,672.5174894305322,,,
730,2.03434,730,0.00397,683.4039909452864,,,
735,2.03283,735,0.00405,692.4326665055054,,,
740,2.03133,740,0.00414,703.0374911276617,,,
745,2.02984,745,0.00422,711.8132079543049,,,
750,2.02837,750,0.00431,722.1474313051738,,,
755,2.0269,755,0.0044,732.3447775255678,,,
760,2.02544,760,0.00449,742.4079481377986,,,
765,2.02399,765,0.00459,753.9822368615504,,,
770,2.02255,770,0.00468,763.7742139636484,,,
775,2.02112,775,0.00477,773.4398429741066,,,
780,2.0197,780,0.00487,784.5926268196048,,,
785,2.01828,785,0.00497,795.6033369855425,,,
790,2.01687,790,0.00507,806.4746710734304,,,
795,2.01547,795,0.00517,817.2092588205903,,,
800,2.01407,800,0.00527,827.8096642209107,,,
805,2.01268,805,0.00537,838.2783875665684,,,
810,2.0113,810,0.00547,848.617867414132,,,
815,2.00992,815,0.00558,860.3723684432415,,,
820,2.00854,820,0.00569,871.9835218988254,,,
825,2.00717,825,0.0058,883.4539341004023,,,
830,2.00581,830,0.0059,893.2721280086641,,,
835,2.00445,835,0.00602,905.9826478855356,,,
840,2.00309,840,0.00613,917.0458555478777,,,
845,2.00173,845,0.00624,927.9781376757543,,,
850,2.00038,850,0.00636,940.2602012626394,,,
855,1.99903,855,0.00647,950.9288640339632,,,
860,1.99769,860,0.00659,962.9346784724065,,,
865,1.99635,865,0.00671,974.8016973682086,,,
870,1.99501,870,0.00683,986.5323137479674,,,
875,1.99367,875,0.00696,999.5650225821697,,,
880,1.99233,880,0.00708,1011.0216357916245,,,
885,1.991,885,0.00721,1023.7687246274536,,,
890,1.98967,890,0.00733,1034.9606359916038,,,
895,1.98834,895,0.00746,1047.4315618225635,,,
900,1.98701,900,0.00759,1059.763921810957,,,
905,1.98568,905,0.00772,1071.960012628208,,,
910,1.98435,910,0.00786,1085.4030003171772,,,
915,1.98303,915,0.00799,1097.325696270271,,,
920,1.9817,920,0.00813,1110.4847075515227,,,
925,1.98037,925,0.00827,1123.501459251355,,,
930,1.97905,930,0.0084,1135.0270232324413,,,
935,1.97772,935,0.00855,1149.1173128638602,,,
940,1.9764,940,0.00869,1161.7208578593745,,,
945,1.97507,945,0.00883,1174.1910320083755,,,
950,1.97375,950,0.00898,1187.8527170204777,,,
955,1.97242,955,0.00913,1201.3713477392591,,,
960,1.97109,960,0.00928,1214.7491593880534,,,
965,1.96977,965,0.00943,1227.9883408643211,,,
970,1.96844,970,0.00958,1241.0910359336171,,,
975,1.96711,975,0.00974,1255.3482029113677,,,
980,1.96578,980,0.00989,1268.1776058776757,,,
985,1.96445,985,0.01005,1282.1525347645654,,,
990,1.96312,990,0.01021,1295.9863027536078,,,
995,1.96178,995,0.01037,1309.681037898539,,,
1000,1.96045,1000,0.01053,1323.238825692021,,,
1005,1.95911,1005,0.0107,1337.9120952601306,,,
1010,1.95777,1010,0.01087,1352.4400849315268,,,
1015,1.95643,1015,0.01104,1366.8249416997562,,,
1020,1.95509,1020,0.01121,1381.068770460454,,,
1025,1.95375,1025,0.01138,1395.1736350381207,,,
1030,1.9524,1030,0.01155,1409.1415591829946,,,
1035,1.95106,1035,0.01173,1424.1886696273732,,,
1040,1.94971,1040,0.01191,1439.0910963174783,,,
1045,1.94836,1045,0.01209,1453.8509160536116,,,
1050,1.947,1050,0.01227,1468.470166077972,,,
1055,1.94564,1055,0.01245,1482.950845012054,,,
1060,1.94429,1060,0.01264,1498.4804204292448,,,
1065,1.94292,1065,0.01282,1512.6842373341276,,,
1070,1.94156,1070,0.01301,1527.929735446849,,,
1075,1.94019,1075,0.01321,1544.2023796807875,,,
1080,1.93882,1080,0.0134,1559.1607984482678,,,
1085,1.93745,1085,0.01359,1573.9813516049876,,,
1090,1.93608,1090,0.01379,1589.8188144221376,,,
1095,1.9347,1095,0.01399,1605.5116428756605,,,
1100,1.93332,1100,0.01419,1621.0618092523334,,,
1105,1.93193,1105,0.01439,1636.4712501414344,,,
1110,1.93055,1110,0.0146,1652.8739726994947,,,
1115,1.92916,1115,0.01481,1669.1295856382005,,,
1120,1.92776,1120,0.01502,1685.2400591756677,,,
1125,1.92636,1125,0.01523,1701.207328503913,,,
1130,1.92496,1130,0.01544,1717.0332945637667,,,
1135,1.92356,1135,0.01566,1733.8269940164287,,,
1140,1.92215,1140,0.01587,1749.371067104211,,,
1145,1.92074,1145,0.01609,1765.8768837121318,,,
1150,1.91933,1150,0.01632,1783.3318993594935,,,
1155,1.91791,1155,0.01654,1799.547791874465,,,
1160,1.91649,1160,0.01677,1816.7072000241665,,,
1165,1.91506,1165,0.017,1833.7193171167892,,,
1170,1.91363,1170,0.01723,1850.5860314992183,,,
1175,1.9122,1175,0.01746,1867.3091993762653,,,
1180,1.91076,1180,0.01769,1883.8906454916423,,,
1185,1.90932,1185,0.01793,1901.392617008101,,,
1190,1.90788,1190,0.01817,1918.7475131336653,,,
1195,1.90643,1195,0.01841,1935.9571800029487,,,
1200,1.90498,1200,0.01866,1954.0706305328515,,,
1205,1.90352,1205,0.0189,1970.990909638078,,,
1210,1.90206,1210,0.01915,1988.8098947518856,,,
1215,1.90059,1215,0.0194,2006.4822215519996,,,
1220,1.89913,1220,0.01966,2025.0397235926341,,,
1225,1.89765,1225,0.01991,2042.419909648091,,,
1230,1.89617,1230,0.02017,2060.6804495254028,,,
1235,1.89469,1235,0.02043,2078.793130780226,,,
1240,1.89321,1240,0.02069,2096.75974202493,,,
1245,1.89172,1245,0.02096,2115.591390176452,,,
1250,1.89022,1250,0.02123,2134.272385142762,,,
1255,1.88872,1255,0.0215,2152.8045275595396,,,
1260,1.88722,1260,0.02177,2171.1895894809463,,,
1265,1.88571,1265,0.02204,2189.4293149444757,,,
1270,1.88419,1270,0.02232,2208.5148985235965,,,
1275,1.88268,1275,0.0226,2227.4507912511162,,,
1280,1.88115,1280,0.02288,2246.2387473167023,,,
1285,1.87963,1285,0.02317,2265.8584212817273,,,
1290,1.87809,1290,0.02346,2285.326004750901,,,
1295,1.87656,1295,0.02375,2304.6432593901955,,,
1300,1.87502,1300,0.02404,2323.811919763035,,,
1305,1.87347,1305,0.02434,2343.796634126454,,,
1310,1.87192,1310,0.02464,2363.628793418397,,,
1315,1.87036,1315,0.02494,2383.3101378107813,,,
1320,1.8688,1320,0.02524,2402.8423811092844,,,
1325,1.86724,1325,0.02555,2423.1756165802026,,,
1330,1.86567,1330,0.02585,2442.4111306855984,,,
1335,1.86409,1335,0.02617,2463.385160882244,,,
1340,1.86251,1340,0.02648,2483.264879613663,,,
1345,1.86092,1345,0.0268,2503.9310963927574,,,
1350,1.85934,1350,0.02712,2524.444230084598,,,
1355,1.85774,1355,0.02744,2544.8059753359094,,,
1360,1.85614,1360,0.02776,2565.018001872137,,,
1365,1.85453,1365,0.02809,2586.0025681857082,,,
1370,1.85292,1370,0.02842,2606.833962482392,,,
1375,1.85131,1375,0.02876,2628.427773592508,,,
1380,1.84968,1380,0.02909,2648.9545012442636,,,
1385,1.84806,1385,0.02943,2670.2403406540825,,,
1390,1.84642,1390,0.02977,2691.3730445285796,,,
1395,1.84479,1395,0.03012,2713.2550745842173,,,
1400,1.84314,1400,0.03047,2734.9808044251713,,,
1405,1.8415,1405,0.03082,2756.5519027370087,,,
1410,1.83984,1410,0.03117,2777.970014535996,,,
1415,1.83818,1415,0.03153,2800.124844316217,,,
1420,1.83652,1420,0.03189,2822.1236541684093,,,
1425,1.83485,1425,0.03225,2843.968086407602,,,
1430,1.83318,1430,0.03262,2866.5385275552185,,,
1435,1.8315,1435,0.03299,2888.9516833986695,,,
1440,1.82981,1440,0.03336,2911.2091923265416,,,
1445,1.82812,1445,0.03374,2934.182315075976,,,
1450,1.82642,1450,0.03411,2956.130356246837,,,
1455,1.82472,1455,0.0345,2979.654887940835,,,
1460,1.82301,1460,0.03488,3002.1575823893695,,,
1465,1.8213,1465,0.03527,3025.3644475661986,,,
1470,1.81957,1470,0.03566,3048.4134429118917,,,
1475,1.81785,1475,0.03605,3071.306173882361,,,
1480,1.81612,1480,0.03645,3094.893303333729,,,
1485,1.81438,1485,0.03685,3118.3215968965355,,,
1490,1.81264,1490,0.03726,3142.4360341679385,,,
1495,1.81089,1495,0.03766,3165.5486109482704,,,
1500,1.80914,1500,0.03807,3189.344861924358,,,
1505,1.80738,1505,0.03849,3213.817973067672,,,
1510,1.80561,1510,0.03891,3238.1290106272545,,,
1515,1.80384,1515,0.03933,3262.279579292054,,,
1520,1.80206,1520,0.03975,3286.271262636692,,,
1525,1.80028,1525,0.04018,3310.9296477701746,,,
1530,1.79849,1530,0.04061,3335.4268669877515,,,
1535,1.79669,1535,0.04104,3359.7644952006544,,,
1540,1.79489,1540,0.04148,3384.7600849585615,,,
1545,1.79309,1545,0.04192,3409.5938909639904,,,
1550,1.79127,1550,0.04237,3435.0782124541815,,,
1555,1.78945,1555,0.04281,3459.5905209049274,,,
1560,1.78763,1560,0.04327,3485.5567723289837,,,
1565,1.7858,1565,0.04372,3510.554142235036,,,
1570,1.78396,1570,0.04418,3536.192698996103,,,
1575,1.78212,1575,0.04465,3562.4663360707123,,,
1580,1.78027,1580,0.04511,3587.7783443907742,,,
1585,1.77841,1585,0.04558,3613.723486451048,,,
1590,1.77655,1590,0.04606,3640.29578929172,,,
1595,1.77468,1595,0.04653,3665.913634395814,,,
1600,1.77281,1600,0.04702,3692.9421642948023,,,
1605,1.77093,1605,0.0475,3719.019340698197,,,
1610,1.76904,1610,0.04799,3745.715066975756,,,
1615,1.76715,1615,0.04848,3772.245494638593,,,
1620,1.76525,1620,0.04898,3799.3878561192123,,,
1625,1.76334,1625,0.04948,3826.3631876830273,,,
1630,1.76143,1630,0.04999,3853.943969397638,,,
1635,1.75951,1635,0.05049,3880.587475957154,,,
1640,1.75759,1640,0.05101,3908.601006332082,,,
1645,1.75566,1645,0.05152,3935.6803285822775,,,
1650,1.75372,1650,0.05204,3963.3571319469784,,,
1655,1.75178,1655,0.05257,3991.626001189497,,,
1660,1.74983,1660,0.0531,4019.7245760389887,,,
1665,1.74787,1665,0.05363,4047.6543906791735,,,
1670,1.74591,1670,0.05417,4076.1694382026135,,,
1675,1.74394,1675,0.05471,4104.5142466363595,,,
1680,1.74196,1680,0.05525,4132.690335972287,,,
1685,1.73998,1685,0.0558,4161.444986832296,,,
1690,1.73799,1690,0.05636,4190.773064054929,,,
1695,1.73599,1695,0.05692,4219.928114273299,,,
1700,1.73399,1700,0.05748,4248.911664196266,,,
1705,1.73198,1705,0.05804,4277.725222624084,,,
1710,1.72997,1710,0.05861,4307.1051561847435,,,
1715,1.72795,1715,0.05919,4337.0465111598805,,,
1720,1.72592,1720,0.05977,4366.813788489812,,,
1725,1.72388,1725,0.06035,4396.408501893195,,,
1730,1.72184,1730,0.06094,4426.55852739334,,,
1735,1.71979,1735,0.06153,4456.534777530374,,,
1740,1.71773,1740,0.06213,4487.06095557549,,,
1745,1.71567,1745,0.06273,4517.4121985028705,,,
1750,1.7136,1750,0.06334,4548.3080840772,,,
1755,1.71153,1755,0.06395,4579.027924719483,,,
1760,1.70944,1760,0.06457,4610.2872191430215,,,
1765,1.70735,1765,0.06519,4641.369407082575,,,
1770,1.70526,1770,0.06582,4672.985953882038,,,
1775,1.70315,1775,0.06645,4704.424379291081,,,
1780,1.70104,1780,0.06708,4735.686184332659,,,
1785,1.69893,1785,0.06772,4767.476851565284,,,
1790,1.6968,1790,0.06836,4799.089917304989,,,
1795,1.69467,1795,0.06902,4831.927018401505,,,
1800,1.69253,1800,0.06967,4863.883559457798,,,
1805,1.69039,1805,0.07033,4896.359253783272,,,
1810,1.68824,1810,0.07099,4928.655524383192,,,
1815,1.68608,1815,0.07166,4961.466216115583,,,
1820,1.68391,1820,0.07234,4994.787089245839,,,
1825,1.68174,1825,0.07302,5027.925382249352,,,
1830,1.67956,1830,0.0737,5060.882591684542,,,
1835,1.67737,1835,0.07439,5094.345013635852,,,
1840,1.67518,1840,0.07509,5128.30852952299,,,
1845,1.67298,1845,0.07579,5162.08796131318,,,
1850,1.67077,1850,0.07649,5195.684801580179,,,
1855,1.66855,1855,0.0772,5229.777959183441,,,
1860,1.66633,1860,0.07792,5264.3634315638,,,
1865,1.6641,1865,0.07864,5298.76345905204,,,
1870,1.66186,1870,0.07937,5333.651527602607,,,
1875,1.65962,1875,0.0801,5368.353526454239,,,
1880,1.65736,1880,0.08084,5403.539364174444,,,
1885,1.6551,1885,0.08158,5438.538539625577,,,
1890,1.65284,1890,0.08233,5474.017421588311,,,
1895,1.65056,1895,0.08309,5509.972212913475,,,
1900,1.64828,1900,0.08385,5545.737768494824,,,
1905,1.64599,1905,0.08461,5581.315578377584,,,
1910,1.6437,1910,0.08538,5617.365042167467,,,
1915,1.64139,1915,0.08616,5653.882465447448,,,
1920,1.63908,1920,0.08694,5690.209693814513,,,
1925,1.63677,1925,0.08773,5727.001007780416,,,
1930,1.63444,1930,0.08853,5764.252800462266,,,
1935,1.63211,1935,0.08933,5801.312077419665,,,
1940,1.62977,1940,0.09014,5838.828078238845,,,
1945,1.62742,1945,0.09095,5876.151194735048,,,
1950,1.62506,1950,0.09177,5913.9273398961095,,,
1955,1.6227,1955,0.0926,5952.153037798769,,,
1960,1.62033,1960,0.09343,5990.183706630497,,,
1965,1.61795,1965,0.09427,6028.660345117758,,,
1970,1.61556,1970,0.09511,6066.941670719294,,,
1975,1.61317,1975,0.09596,6105.665438753956,,,
1980,1.61077,1980,0.09682,6144.828297385127,,,
1985,1.60836,1985,0.09768,6183.793862018156,,,
1990,1.60595,1990,0.09855,6223.195095704003,,,
1995,1.60352,1995,0.09943,6263.028722735502,,,
2000,1.60109,2000,0.10031,6302.663181631843,,,