"λ,n (nm)",n,"λ,k (nm)",k,α (cm⁻¹),Reference,Reference text,Details
250,2.467641,250,0.846447,425470.6682964992,"Zachary C. Holman, 'Unpublished', (2012)","Zachary C. Holman, 'Unpublished', (2012)","Highly transparent ZnO (n < 1x10<sup>19</sup> cm<sup>-3</sup>), corsin polished LPCVD ZnO."
255,2.484195,255,0.801991,395220.24060315796,,,
260,2.498033,260,0.757913,366315.9865938771,,,
265,2.509262,265,0.714359,338750.94134728314,,,
270,2.517991,270,0.671465,312514.00165076595,,,
275,2.524336,275,0.62935,287587.10349625256,,,
280,2.528414,280,0.588124,263949.4339714062,,,
285,2.530341,285,0.547884,241575.90869044076,,,
290,2.530236,290,0.508716,220438.40667083932,,,
295,2.528217,295,0.470697,200506.8796293905,,,
300,2.524399,300,0.433894,181749.09371155864,,,
305,2.518897,305,0.398365,164131.22064882595,,,
310,2.511823,310,0.364164,147619.99317443525,,,
315,2.503287,315,0.331333,132179.46904023708,,,
320,2.493396,320,0.299913,117775.55968950945,,,
325,2.482256,325,0.269938,104373.56771996574,,,
330,2.469969,330,0.241437,91938.99460663745,,,
335,2.456636,335,0.214435,80437.90097582414,,,
340,2.442356,340,0.188957,69838.34388757254,,,
345,2.427226,345,0.165021,60107.682468178704,,,
350,2.411342,350,0.142645,51215.141036721834,,,
355,2.394802,355,0.121846,43131.32377118895,,,
360,2.377701,360,0.102639,35827.7698190892,,,
365,2.360136,365,0.085038,29277.23354257193,,,
370,2.342209,370,0.069055,23453.262777691154,,,
375,2.324021,375,0.054705,18331.821452227163,,,
380,2.305683,380,0.041998,13888.485080575174,,,
385,2.287309,385,0.030947,10101.077179287618,,,
390,2.269026,390,0.021563,6947.914091216073,,,
395,2.250974,395,0.013859,4409.046337833008,,,
400,2.233318,400,0.007842,2463.636958945116,,,
405,2.216257,405,0.003523,1093.1191030712932,,,
410,2.200055,410,0.000908,278.2991345814178,,,
415,2.185169,415,0.000001,0.3028041111893776,,,
420,2.172408,420,0,0,,,
425,2.161082,425,0,0,,,
430,2.15078,430,0,0,,,
435,2.141303,435,0,0,,,
440,2.132519,440,0,0,,,
445,2.124335,445,0,0,,,
450,2.116675,450,0,0,,,
455,2.109482,455,0,0,,,
460,2.102707,460,0,0,,,
465,2.096311,465,0,0,,,
470,2.090257,470,0,0,,,
475,2.084517,475,0,0,,,
480,2.079066,480,0,0,,,
485,2.073879,485,0,0,,,
490,2.068937,490,0,0,,,
495,2.064224,495,0,0,,,
500,2.059721,500,0,0,,,
505,2.055415,505,0,0,,,
510,2.051293,510,0,0,,,
515,2.047344,515,0,0,,,
520,2.043556,520,0,0,,,
525,2.039919,525,0,0,,,
530,2.036426,530,0,0,,,
535,2.033067,535,0,0,,,
540,2.029835,540,0,0,,,
545,2.026722,545,0,0,,,
550,2.023724,550,0,0,,,
555,2.020832,555,0,0,,,
560,2.018043,560,0,0,,,
565,2.015351,565,0,0,,,
570,2.01275,570,0,0,,,
575,2.010237,575,0,0,,,
580,2.007807,580,0,0,,,
585,2.005457,585,0,0,,,
590,2.003182,590,0,0,,,
595,2.000979,595,0,0,,,
600,1.998845,600,0,0,,,
605,1.996777,605,0,0,,,
610,1.994772,610,0,0,,,
615,1.992828,615,0,0,,,
620,1.990941,620,0,0,,,
625,1.98911,625,0,0,,,
630,1.987331,630,0,0,,,
635,1.985604,635,0,0,,,
640,1.983925,640,0,0,,,
645,1.982293,645,0,0,,,
650,1.980707,650,0,0,,,
655,1.979164,655,0,0,,,
660,1.977663,660,0,0,,,
665,1.976201,665,0,0,,,
670,1.974779,670,0,0,,,
675,1.973393,675,0,0,,,
680,1.972044,680,0,0,,,
685,1.970729,685,0,0,,,
690,1.969447,690,0,0,,,
695,1.968198,695,0,0,,,
700,1.96698,700,0,0,,,
705,1.965792,705,0,0,,,
710,1.964632,710,0,0,,,
715,1.963501,715,0,0,,,
720,1.962397,720,0,0,,,
725,1.961319,725,0,0,,,
730,1.960266,730,0,0,,,
735,1.959239,735,0,0,,,
740,1.958234,740,0,0,,,
745,1.957253,745,0,0,,,
750,1.956294,750,0,0,,,
755,1.955357,755,0,0,,,
760,1.95444,760,0,0,,,
765,1.953544,765,0,0,,,
770,1.952667,770,0,0,,,
775,1.951809,775,0,0,,,
780,1.95097,780,0,0,,,
785,1.950149,785,0,0,,,
790,1.949345,790,0,0,,,
795,1.948559,795,0,0,,,
800,1.947788,800,0,0,,,
805,1.947034,805,0,0,,,
810,1.946295,810,0,0,,,
815,1.945571,815,0,0,,,
820,1.944862,820,0,0,,,
825,1.944167,825,0,0,,,
830,1.943486,830,0,0,,,
835,1.942819,835,0,0,,,
840,1.942164,840,0,0,,,
845,1.941523,845,0,0,,,
850,1.940893,850,0,0,,,
855,1.940277,855,0,0,,,
860,1.939671,860,0,0,,,
865,1.939078,865,0,0,,,
870,1.938495,870,0,0,,,
875,1.937923,875,0,0,,,
880,1.937362,880,0,0,,,
885,1.936812,885,0,0,,,
890,1.936271,890,0,0,,,
895,1.93574,895,0,0,,,
900,1.935219,900,0,0,,,
905,1.934707,905,0,0,,,
910,1.934204,910,0,0,,,
915,1.93371,915,0,0,,,
920,1.933225,920,0,0,,,
925,1.932749,925,0,0,,,
930,1.932281,930,0,0,,,
935,1.93182,935,0,0,,,
940,1.931368,940,0,0,,,
945,1.930924,945,0,0,,,
950,1.930487,950,0,0,,,
955,1.930057,955,0,0,,,
960,1.929635,960,0,0,,,
965,1.929219,965,0,0,,,
970,1.928811,970,0,0,,,
975,1.928409,975,0,0,,,
980,1.928014,980,0,0,,,
985,1.927625,985,0,0,,,
990,1.927243,990,0,0,,,
995,1.926866,995,0,0,,,
1000,1.926496,1000,0,0,,,
1005,1.926132,1005,0,0,,,
1010,1.925773,1010,0,0,,,
1015,1.92542,1015,0,0,,,
1020,1.925073,1020,0,0,,,
1025,1.92473,1025,0,0,,,
1030,1.924394,1030,0,0,,,
1035,1.924062,1035,0,0,,,
1040,1.923736,1040,0,0,,,
1045,1.923415,1045,0,0,,,
1050,1.923098,1050,0,0,,,
1055,1.922786,1055,0,0,,,
1060,1.922479,1060,0,0,,,
1065,1.922176,1065,0,0,,,
1070,1.921878,1070,0,0,,,
1075,1.921584,1075,0,0,,,
1080,1.921295,1080,0,0,,,
1085,1.921009,1085,0,0,,,
1090,1.920728,1090,0,0,,,
1095,1.920451,1095,0,0,,,
1100,1.920178,1100,0,0,,,
1105,1.919909,1105,0,0,,,
1110,1.919644,1110,0,0,,,
1115,1.919382,1115,0,0,,,
1120,1.919124,1120,0,0,,,
1125,1.91887,1125,0,0,,,
1130,1.91862,1130,0,0,,,
1135,1.918372,1135,0,0,,,
1140,1.918128,1140,0,0,,,
1145,1.917888,1145,0,0,,,
1150,1.917651,1150,0,0,,,
1155,1.917417,1155,0,0,,,
1160,1.917186,1160,0,0,,,
1165,1.916958,1165,0,0,,,
1170,1.916734,1170,0,0,,,
1175,1.916512,1175,0,0,,,
1180,1.916293,1180,0,0,,,
1185,1.916078,1185,0,0,,,
1190,1.915865,1190,0,0,,,
1195,1.915655,1195,0,0,,,
1200,1.915447,1200,0,0,,,
1205,1.915243,1205,0,0,,,
1210,1.915041,1210,0,0,,,
1215,1.914841,1215,0,0,,,
1220,1.914644,1220,0,0,,,
1225,1.91445,1225,0,0,,,
1230,1.914258,1230,0,0,,,
1235,1.914069,1235,0,0,,,
1240,1.913881,1240,0,0,,,
1245,1.913697,1245,0,0,,,
1250,1.913514,1250,0,0,,,
1255,1.913334,1255,0,0,,,
1260,1.913156,1260,0,0,,,
1265,1.91298,1265,0,0,,,
1270,1.912807,1270,0,0,,,
1275,1.912635,1275,0,0,,,
1280,1.912466,1280,0,0,,,
1285,1.912299,1285,0,0,,,
1290,1.912134,1290,0,0,,,
1295,1.91197,1295,0,0,,,
1300,1.911808,1300,0,0,,,
1305,1.911649,1305,0,0,,,
1310,1.911492,1310,0,0,,,
1315,1.911336,1315,0,0,,,
1320,1.911182,1320,0,0,,,
1325,1.91103,1325,0,0,,,
1330,1.91088,1330,0,0,,,
1335,1.910731,1335,0,0,,,
1340,1.910584,1340,0,0,,,
1345,1.910439,1345,0,0,,,
1350,1.910296,1350,0,0,,,
1355,1.910154,1355,0,0,,,
1360,1.910014,1360,0,0,,,
1365,1.909875,1365,0,0,,,
1370,1.909738,1370,0,0,,,
1375,1.909603,1375,0,0,,,
1380,1.909469,1380,0,0,,,
1385,1.909336,1385,0,0,,,
1390,1.909205,1390,0,0,,,
1395,1.909076,1395,0,0,,,
1400,1.908948,1400,0,0,,,
1405,1.908821,1405,0,0,,,
1410,1.908695,1410,0,0,,,
1415,1.908572,1415,0,0,,,
1420,1.908449,1420,0,0,,,
1425,1.908328,1425,0,0,,,
1430,1.908208,1430,0,0,,,
1435,1.908089,1435,0,0,,,
1440,1.907972,1440,0,0,,,
1445,1.907856,1445,0,0,,,
1450,1.90774,1450,0,0,,,
1455,1.907627,1455,0,0,,,
1460,1.907514,1460,0,0,,,
1465,1.907403,1465,0,0,,,
1470,1.907293,1470,0,0,,,
1475,1.907184,1475,0,0,,,
1480,1.907076,1480,0,0,,,
1485,1.90697,1485,0,0,,,
1490,1.906864,1490,0,0,,,
1495,1.906759,1495,0,0,,,
1500,1.906656,1500,0,0,,,
1505,1.906553,1505,0,0,,,
1510,1.906452,1510,0,0,,,
1515,1.906352,1515,0,0,,,
1520,1.906253,1520,0,0,,,
1525,1.906154,1525,0,0,,,
1530,1.906057,1530,0,0,,,
1535,1.90596,1535,0,0,,,
1540,1.905865,1540,0,0,,,
1545,1.905771,1545,0,0,,,
1550,1.905677,1550,0,0,,,
1555,1.905585,1555,0,0,,,
1560,1.905493,1560,0,0,,,
1565,1.905402,1565,0,0,,,
1570,1.905312,1570,0,0,,,
1575,1.905224,1575,0,0,,,
1580,1.905135,1580,0,0,,,
1585,1.905048,1585,0,0,,,
1590,1.904962,1590,0,0,,,
1595,1.904876,1595,0,0,,,
1600,1.904791,1600,0,0,,,
1605,1.904707,1605,0,0,,,
1610,1.904624,1610,0,0,,,
1615,1.904542,1615,0,0,,,
1620,1.90446,1620,0,0,,,
1625,1.90438,1625,0,0,,,
1630,1.904299,1630,0,0,,,
1635,1.90422,1635,0,0,,,
1640,1.904141,1640,0,0,,,
1645,1.904064,1645,0,0,,,
1650,1.903986,1650,0,0,,,
1655,1.90391,1655,0,0,,,
1660,1.903835,1660,0,0,,,
1665,1.90376,1665,0,0,,,
1670,1.903685,1670,0,0,,,
1675,1.903611,1675,0,0,,,
1680,1.903539,1680,0,0,,,
1685,1.903466,1685,0,0,,,
1690,1.903394,1690,0,0,,,
1695,1.903323,1695,0,0,,,
1700,1.903253,1700,0,0,,,
1705,1.903184,1705,0,0,,,
1710,1.903114,1710,0,0,,,
1715,1.903046,1715,0,0,,,
1720,1.902978,1720,0,0,,,
1725,1.902911,1725,0,0,,,
1730,1.902844,1730,0,0,,,
1735,1.902778,1735,0,0,,,
1740,1.902712,1740,0,0,,,
1745,1.902647,1745,0,0,,,
1750,1.902583,1750,0,0,,,
1755,1.902519,1755,0,0,,,
1760,1.902456,1760,0,0,,,
1765,1.902394,1765,0,0,,,
1770,1.902331,1770,0,0,,,
1775,1.90227,1775,0,0,,,
1780,1.902208,1780,0,0,,,
1785,1.902148,1785,0,0,,,
1790,1.902088,1790,0,0,,,
1795,1.902028,1795,0,0,,,
1800,1.901969,1800,0,0,,,
1805,1.901911,1805,0,0,,,
1810,1.901853,1810,0,0,,,
1815,1.901795,1815,0,0,,,
1820,1.901738,1820,0,0,,,
1825,1.901682,1825,0,0,,,
1830,1.901625,1830,0,0,,,
1835,1.90157,1835,0,0,,,
1840,1.901515,1840,0,0,,,
1845,1.90146,1845,0,0,,,
1850,1.901406,1850,0,0,,,
1855,1.901352,1855,0,0,,,
1860,1.901298,1860,0,0,,,
1865,1.901245,1865,0,0,,,
1870,1.901193,1870,0,0,,,
1875,1.901141,1875,0,0,,,
1880,1.901089,1880,0,0,,,
1885,1.901038,1885,0,0,,,
1890,1.900987,1890,0,0,,,
1895,1.900936,1895,0,0,,,
1900,1.900886,1900,0,0,,,
1905,1.900837,1905,0,0,,,
1910,1.900788,1910,0,0,,,
1915,1.900739,1915,0,0,,,
1920,1.90069,1920,0,0,,,
1925,1.900642,1925,0,0,,,
1930,1.900595,1930,0,0,,,
1935,1.900547,1935,0,0,,,
1940,1.9005,1940,0,0,,,
1945,1.900454,1945,0,0,,,
1950,1.900407,1950,0,0,,,
1955,1.900362,1955,0,0,,,
1960,1.900316,1960,0,0,,,
1965,1.900271,1965,0,0,,,
1970,1.900226,1970,0,0,,,
1975,1.900182,1975,0,0,,,
1980,1.900137,1980,0,0,,,
1985,1.900094,1985,0,0,,,
1990,1.90005,1990,0,0,,,
1995,1.900007,1995,0,0,,,
2000,1.899964,2000,0,0,,,